# Gas total optical depths for US Standard Atmosphere profile
# computed with LBLRTM and averaged to 0.01 GHz bins
# Clough et al., 2005, JQSRT doi:10.1016/j.jqsrt.2004.05.058
# bin center freq [GHz], dry air optical depth [], water vapor mass absorption coef [m^2/kg]
  5.005   0.026761   0.000244
  5.015   0.026714   0.000248
  5.025   0.026668   0.000252
  5.035   0.026621   0.000255
  5.045   0.026574   0.000259
  5.055   0.026527   0.000262
  5.065   0.026480   0.000266
  5.075   0.026433   0.000270
  5.085   0.026385   0.000273
  5.095   0.026335   0.000277
  5.105   0.026286   0.000281
  5.115   0.026236   0.000285
  5.125   0.026187   0.000289
  5.135   0.026137   0.000292
  5.145   0.026088   0.000296
  5.155   0.026038   0.000299
  5.165   0.025989   0.000303
  5.175   0.025939   0.000306
  5.185   0.025890   0.000310
  5.195   0.025841   0.000313
  5.205   0.025792   0.000316
  5.215   0.025743   0.000320
  5.225   0.025694   0.000323
  5.235   0.025645   0.000327
  5.245   0.025596   0.000330
  5.255   0.025547   0.000333
  5.265   0.025498   0.000337
  5.275   0.025450   0.000340
  5.285   0.025401   0.000344
  5.295   0.025352   0.000347
  5.305   0.025303   0.000350
  5.315   0.025254   0.000354
  5.325   0.025205   0.000357
  5.335   0.025156   0.000361
  5.345   0.025108   0.000364
  5.355   0.025059   0.000367
  5.365   0.025010   0.000371
  5.375   0.024963   0.000374
  5.385   0.024944   0.000376
  5.395   0.024934   0.000376
  5.405   0.024925   0.000377
  5.415   0.024916   0.000378
  5.425   0.024907   0.000378
  5.435   0.024897   0.000379
  5.445   0.024888   0.000379
  5.455   0.024879   0.000378
  5.465   0.024870   0.000377
  5.475   0.024861   0.000377
  5.485   0.024851   0.000376
  5.495   0.024842   0.000375
  5.505   0.024833   0.000374
  5.515   0.024824   0.000373
  5.525   0.024814   0.000372
  5.535   0.024805   0.000371
  5.545   0.024796   0.000370
  5.555   0.024787   0.000369
  5.565   0.024777   0.000368
  5.575   0.024768   0.000367
  5.585   0.024759   0.000366
  5.595   0.024750   0.000365
  5.605   0.024741   0.000365
  5.615   0.024732   0.000364
  5.625   0.024723   0.000363
  5.635   0.024714   0.000362
  5.645   0.024705   0.000361
  5.655   0.024696   0.000360
  5.665   0.024688   0.000359
  5.675   0.024681   0.000358
  5.685   0.024684   0.000356
  5.695   0.024688   0.000354
  5.705   0.024692   0.000352
  5.715   0.024697   0.000350
  5.725   0.024701   0.000349
  5.735   0.024705   0.000347
  5.745   0.024710   0.000345
  5.755   0.024714   0.000343
  5.765   0.024718   0.000340
  5.775   0.024723   0.000338
  5.785   0.024727   0.000335
  5.795   0.024732   0.000333
  5.805   0.024736   0.000330
  5.815   0.024741   0.000327
  5.825   0.024745   0.000325
  5.835   0.024750   0.000322
  5.845   0.024754   0.000320
  5.855   0.024759   0.000317
  5.865   0.024763   0.000315
  5.875   0.024768   0.000312
  5.885   0.024773   0.000310
  5.895   0.024778   0.000307
  5.905   0.024782   0.000304
  5.915   0.024787   0.000302
  5.925   0.024792   0.000299
  5.935   0.024796   0.000297
  5.945   0.024801   0.000294
  5.955   0.024806   0.000292
  5.965   0.024810   0.000289
  5.975   0.024819   0.000286
  5.985   0.024835   0.000283
  5.995   0.024851   0.000280
  6.005   0.024868   0.000276
  6.015   0.024884   0.000273
  6.025   0.024901   0.000269
  6.035   0.024917   0.000266
  6.045   0.024934   0.000263
  6.055   0.024950   0.000259
  6.065   0.024966   0.000256
  6.075   0.024983   0.000252
  6.085   0.024999   0.000248
  6.095   0.025016   0.000244
  6.105   0.025032   0.000240
  6.115   0.025049   0.000237
  6.125   0.025066   0.000233
  6.135   0.025083   0.000229
  6.145   0.025099   0.000225
  6.155   0.025116   0.000221
  6.165   0.025133   0.000217
  6.175   0.025149   0.000213
  6.185   0.025165   0.000210
  6.195   0.025181   0.000206
  6.205   0.025196   0.000202
  6.215   0.025212   0.000198
  6.225   0.025228   0.000194
  6.235   0.025244   0.000191
  6.245   0.025259   0.000187
  6.255   0.025275   0.000183
  6.265   0.025291   0.000179
  6.275   0.025312   0.000175
  6.285   0.025337   0.000171
  6.295   0.025361   0.000166
  6.305   0.025386   0.000162
  6.315   0.025410   0.000157
  6.325   0.025435   0.000153
  6.335   0.025460   0.000148
  6.345   0.025484   0.000144
  6.355   0.025509   0.000140
  6.365   0.025534   0.000135
  6.375   0.025559   0.000131
  6.385   0.025583   0.000126
  6.395   0.025608   0.000122
  6.405   0.025633   0.000117
  6.415   0.025657   0.000113
  6.425   0.025682   0.000108
  6.435   0.025707   0.000104
  6.445   0.025731   0.000100
  6.455   0.025756   0.000095
  6.465   0.025781   0.000091
  6.475   0.025805   0.000086
  6.485   0.025830   0.000082
  6.495   0.025854   0.000077
  6.505   0.025879   0.000073
  6.515   0.025904   0.000069
  6.525   0.025928   0.000064
  6.535   0.025953   0.000060
  6.545   0.025977   0.000055
  6.555   0.026002   0.000051
  6.565   0.026026   0.000047
  6.575   0.026039   0.000043
  6.585   0.026049   0.000039
  6.595   0.026059   0.000036
  6.605   0.026069   0.000033
  6.615   0.026079   0.000029
  6.625   0.026089   0.000026
  6.635   0.026098   0.000022
  6.645   0.026108   0.000019
  6.655   0.026118   0.000016
  6.665   0.026128   0.000012
  6.675   0.026138   0.000011
  6.685   0.026148   0.000010
  6.695   0.026158   0.000009
  6.705   0.026168   0.000008
  6.715   0.026178   0.000007
  6.725   0.026188   0.000006
  6.735   0.026198   0.000005
  6.745   0.026207   0.000004
  6.755   0.026217   0.000003
  6.765   0.026227   0.000002
  6.775   0.026237   0.000001
  6.785   0.026247   0.000000
  6.795   0.026257   0.000000
  6.805   0.026266   0.000000
  6.815   0.026275   0.000000
  6.825   0.026284   0.000000
  6.835   0.026293   0.000000
  6.845   0.026302   0.000000
  6.855   0.026311   0.000000
  6.865   0.026320   0.000000
  6.875   0.026330   0.000000
  6.885   0.026339   0.000000
  6.895   0.026348   0.000000
  6.905   0.026358   0.000000
  6.915   0.026367   0.000000
  6.925   0.026376   0.000000
  6.935   0.026386   0.000000
  6.945   0.026395   0.000000
  6.955   0.026405   0.000000
  6.965   0.026414   0.000000
  6.975   0.026423   0.000000
  6.985   0.026432   0.000000
  6.995   0.026442   0.000000
  7.005   0.026451   0.000000
  7.015   0.026460   0.000000
  7.025   0.026470   0.000000
  7.035   0.026479   0.000000
  7.045   0.026488   0.000000
  7.055   0.026497   0.000000
  7.065   0.026507   0.000000
  7.075   0.026516   0.000000
  7.085   0.026525   0.000000
  7.095   0.026535   0.000000
  7.105   0.026544   0.000000
  7.115   0.026553   0.000000
  7.125   0.026563   0.000000
  7.135   0.026572   0.000000
  7.145   0.026581   0.000000
  7.155   0.026590   0.000000
  7.165   0.026600   0.000000
  7.175   0.026610   0.000000
  7.185   0.026619   0.000000
  7.195   0.026629   0.000000
  7.205   0.026638   0.000000
  7.215   0.026648   0.000000
  7.225   0.026658   0.000000
  7.235   0.026667   0.000000
  7.245   0.026677   0.000000
  7.255   0.026687   0.000000
  7.265   0.026696   0.000000
  7.275   0.026706   0.000000
  7.285   0.026716   0.000000
  7.295   0.026725   0.000000
  7.305   0.026735   0.000000
  7.315   0.026745   0.000000
  7.325   0.026754   0.000000
  7.335   0.026764   0.000000
  7.345   0.026774   0.000000
  7.355   0.026783   0.000000
  7.365   0.026793   0.000000
  7.375   0.026802   0.000000
  7.385   0.026812   0.000000
  7.395   0.026821   0.000000
  7.405   0.026831   0.000000
  7.415   0.026840   0.000000
  7.425   0.026850   0.000000
  7.435   0.026859   0.000000
  7.445   0.026869   0.000000
  7.455   0.026878   0.000000
  7.465   0.026888   0.000000
  7.475   0.026898   0.000000
  7.485   0.026908   0.000000
  7.495   0.026917   0.000000
  7.505   0.026927   0.000000
  7.515   0.026937   0.000000
  7.525   0.026947   0.000000
  7.535   0.026956   0.000000
  7.545   0.026966   0.000000
  7.555   0.026976   0.000000
  7.565   0.026986   0.000000
  7.575   0.026995   0.000000
  7.585   0.027005   0.000000
  7.595   0.027015   0.000000
  7.605   0.027024   0.000000
  7.615   0.027034   0.000000
  7.625   0.027044   0.000000
  7.635   0.027053   0.000000
  7.645   0.027063   0.000000
  7.655   0.027073   0.000000
  7.665   0.027082   0.000000
  7.675   0.027092   0.000000
  7.685   0.027102   0.000001
  7.695   0.027111   0.000002
  7.705   0.027121   0.000003
  7.715   0.027131   0.000004
  7.725   0.027140   0.000005
  7.735   0.027150   0.000006
  7.745   0.027160   0.000007
  7.755   0.027169   0.000008
  7.765   0.027178   0.000009
  7.775   0.027187   0.000010
  7.785   0.027195   0.000011
  7.795   0.027204   0.000012
  7.805   0.027212   0.000013
  7.815   0.027221   0.000014
  7.825   0.027229   0.000015
  7.835   0.027238   0.000016
  7.845   0.027246   0.000017
  7.855   0.027255   0.000018
  7.865   0.027263   0.000020
  7.875   0.027272   0.000021
  7.885   0.027280   0.000022
  7.895   0.027289   0.000022
  7.905   0.027297   0.000022
  7.915   0.027306   0.000023
  7.925   0.027314   0.000023
  7.935   0.027323   0.000023
  7.945   0.027332   0.000023
  7.955   0.027340   0.000023
  7.965   0.027349   0.000023
  7.975   0.027357   0.000023
  7.985   0.027366   0.000023
  7.995   0.027374   0.000023
  8.005   0.027383   0.000023
  8.015   0.027391   0.000024
  8.025   0.027400   0.000024
  8.035   0.027408   0.000024
  8.045   0.027417   0.000024
  8.055   0.027425   0.000024
  8.065   0.027434   0.000024
  8.075   0.027443   0.000024
  8.085   0.027451   0.000024
  8.095   0.027460   0.000024
  8.105   0.027469   0.000025
  8.115   0.027477   0.000025
  8.125   0.027486   0.000025
  8.135   0.027495   0.000025
  8.145   0.027504   0.000025
  8.155   0.027512   0.000025
  8.165   0.027521   0.000025
  8.175   0.027530   0.000025
  8.185   0.027538   0.000025
  8.195   0.027547   0.000026
  8.205   0.027556   0.000026
  8.215   0.027565   0.000026
  8.225   0.027573   0.000026
  8.235   0.027582   0.000026
  8.245   0.027591   0.000026
  8.255   0.027599   0.000026
  8.265   0.027608   0.000026
  8.275   0.027617   0.000026
  8.285   0.027626   0.000027
  8.295   0.027634   0.000027
  8.305   0.027643   0.000027
  8.315   0.027652   0.000027
  8.325   0.027661   0.000027
  8.335   0.027669   0.000027
  8.345   0.027678   0.000027
  8.355   0.027687   0.000027
  8.365   0.027696   0.000027
  8.375   0.027704   0.000028
  8.385   0.027713   0.000028
  8.395   0.027722   0.000028
  8.405   0.027730   0.000028
  8.415   0.027739   0.000028
  8.425   0.027748   0.000028
  8.435   0.027757   0.000028
  8.445   0.027765   0.000028
  8.455   0.027774   0.000029
  8.465   0.027783   0.000029
  8.475   0.027792   0.000029
  8.485   0.027800   0.000029
  8.495   0.027809   0.000029
  8.505   0.027818   0.000029
  8.515   0.027826   0.000029
  8.525   0.027835   0.000029
  8.535   0.027844   0.000029
  8.545   0.027853   0.000030
  8.555   0.027861   0.000030
  8.565   0.027870   0.000030
  8.575   0.027878   0.000030
  8.585   0.027887   0.000030
  8.595   0.027895   0.000030
  8.605   0.027904   0.000030
  8.615   0.027913   0.000030
  8.625   0.027921   0.000031
  8.635   0.027930   0.000031
  8.645   0.027938   0.000031
  8.655   0.027947   0.000031
  8.665   0.027956   0.000031
  8.675   0.027964   0.000031
  8.685   0.027973   0.000031
  8.695   0.027981   0.000031
  8.705   0.027990   0.000032
  8.715   0.027998   0.000032
  8.725   0.028007   0.000032
  8.735   0.028015   0.000032
  8.745   0.028023   0.000032
  8.755   0.028031   0.000032
  8.765   0.028040   0.000032
  8.775   0.028048   0.000033
  8.785   0.028056   0.000033
  8.795   0.028064   0.000033
  8.805   0.028073   0.000033
  8.815   0.028081   0.000033
  8.825   0.028089   0.000033
  8.835   0.028098   0.000034
  8.845   0.028106   0.000034
  8.855   0.028114   0.000034
  8.865   0.028122   0.000034
  8.875   0.028131   0.000034
  8.885   0.028139   0.000034
  8.895   0.028148   0.000034
  8.905   0.028156   0.000035
  8.915   0.028164   0.000035
  8.925   0.028173   0.000035
  8.935   0.028181   0.000035
  8.945   0.028189   0.000035
  8.955   0.028197   0.000035
  8.965   0.028205   0.000036
  8.975   0.028213   0.000036
  8.985   0.028221   0.000036
  8.995   0.028229   0.000036
  9.005   0.028237   0.000036
  9.015   0.028245   0.000036
  9.025   0.028253   0.000037
  9.035   0.028261   0.000037
  9.045   0.028269   0.000037
  9.055   0.028277   0.000037
  9.065   0.028286   0.000037
  9.075   0.028294   0.000038
  9.085   0.028302   0.000038
  9.095   0.028311   0.000038
  9.105   0.028319   0.000038
  9.115   0.028327   0.000038
  9.125   0.028336   0.000039
  9.135   0.028345   0.000039
  9.145   0.028354   0.000039
  9.155   0.028364   0.000039
  9.165   0.028374   0.000039
  9.175   0.028386   0.000039
  9.185   0.028400   0.000039
  9.195   0.028419   0.000040
  9.205   0.028430   0.000040
  9.215   0.028424   0.000040
  9.225   0.028426   0.000040
  9.235   0.028430   0.000040
  9.245   0.028435   0.000040
  9.255   0.028441   0.000041
  9.265   0.028447   0.000041
  9.275   0.028453   0.000041
  9.285   0.028460   0.000041
  9.295   0.028467   0.000041
  9.305   0.028474   0.000042
  9.315   0.028481   0.000042
  9.325   0.028488   0.000042
  9.335   0.028495   0.000042
  9.345   0.028503   0.000042
  9.355   0.028510   0.000042
  9.365   0.028518   0.000043
  9.375   0.028526   0.000043
  9.385   0.028534   0.000043
  9.395   0.028541   0.000043
  9.405   0.028549   0.000043
  9.415   0.028557   0.000043
  9.425   0.028565   0.000044
  9.435   0.028572   0.000044
  9.445   0.028580   0.000044
  9.455   0.028588   0.000044
  9.465   0.028596   0.000044
  9.475   0.028603   0.000045
  9.485   0.028611   0.000045
  9.495   0.028619   0.000045
  9.505   0.028627   0.000045
  9.515   0.028635   0.000045
  9.525   0.028643   0.000046
  9.535   0.028651   0.000046
  9.545   0.028658   0.000046
  9.555   0.028666   0.000046
  9.565   0.028674   0.000046
  9.575   0.028682   0.000046
  9.585   0.028690   0.000047
  9.595   0.028698   0.000047
  9.605   0.028706   0.000047
  9.615   0.028714   0.000047
  9.625   0.028722   0.000047
  9.635   0.028730   0.000048
  9.645   0.028738   0.000048
  9.655   0.028746   0.000048
  9.665   0.028754   0.000048
  9.675   0.028761   0.000048
  9.685   0.028769   0.000049
  9.695   0.028777   0.000049
  9.705   0.028785   0.000049
  9.715   0.028792   0.000049
  9.725   0.028800   0.000049
  9.735   0.028808   0.000050
  9.745   0.028816   0.000050
  9.755   0.028824   0.000050
  9.765   0.028832   0.000050
  9.775   0.028839   0.000050
  9.785   0.028847   0.000051
  9.795   0.028855   0.000051
  9.805   0.028863   0.000051
  9.815   0.028871   0.000051
  9.825   0.028879   0.000052
  9.835   0.028887   0.000052
  9.845   0.028895   0.000052
  9.855   0.028903   0.000052
  9.865   0.028911   0.000052
  9.875   0.028919   0.000053
  9.885   0.028927   0.000053
  9.895   0.028934   0.000053
  9.905   0.028942   0.000053
  9.915   0.028950   0.000053
  9.925   0.028958   0.000054
  9.935   0.028966   0.000054
  9.945   0.028974   0.000054
  9.955   0.028982   0.000054
  9.965   0.028990   0.000054
  9.975   0.028998   0.000055
  9.985   0.029007   0.000055
  9.995   0.029015   0.000055
 10.005   0.029023   0.000055
 10.015   0.029031   0.000055
 10.025   0.029040   0.000056
 10.035   0.029048   0.000056
 10.045   0.029056   0.000056
 10.055   0.029065   0.000056
 10.065   0.029073   0.000056
 10.075   0.029082   0.000057
 10.085   0.029091   0.000057
 10.095   0.029100   0.000057
 10.105   0.029109   0.000057
 10.115   0.029118   0.000057
 10.125   0.029127   0.000058
 10.135   0.029137   0.000058
 10.145   0.029146   0.000058
 10.155   0.029156   0.000058
 10.165   0.029167   0.000059
 10.175   0.029178   0.000059
 10.185   0.029190   0.000059
 10.195   0.029204   0.000059
 10.205   0.029221   0.000059
 10.215   0.029244   0.000060
 10.225   0.029278   0.000060
 10.235   0.029264   0.000060
 10.245   0.029254   0.000060
 10.255   0.029251   0.000061
 10.265   0.029252   0.000061
 10.275   0.029255   0.000061
 10.285   0.029259   0.000061
 10.295   0.029264   0.000061
 10.305   0.029269   0.000062
 10.315   0.029274   0.000062
 10.325   0.029280   0.000062
 10.335   0.029286   0.000062
 10.345   0.029293   0.000063
 10.355   0.029299   0.000063
 10.365   0.029306   0.000063
 10.375   0.029313   0.000063
 10.385   0.029320   0.000063
 10.395   0.029327   0.000064
 10.405   0.029334   0.000064
 10.415   0.029342   0.000064
 10.425   0.029349   0.000064
 10.435   0.029356   0.000064
 10.445   0.029363   0.000065
 10.455   0.029371   0.000065
 10.465   0.029378   0.000065
 10.475   0.029386   0.000065
 10.485   0.029393   0.000065
 10.495   0.029400   0.000066
 10.505   0.029408   0.000066
 10.515   0.029416   0.000066
 10.525   0.029423   0.000066
 10.535   0.029431   0.000066
 10.545   0.029438   0.000067
 10.555   0.029446   0.000067
 10.565   0.029454   0.000067
 10.575   0.029462   0.000067
 10.585   0.029470   0.000068
 10.595   0.029478   0.000068
 10.605   0.029487   0.000068
 10.615   0.029495   0.000068
 10.625   0.029502   0.000068
 10.635   0.029509   0.000069
 10.645   0.029517   0.000069
 10.655   0.029524   0.000069
 10.665   0.029532   0.000069
 10.675   0.029540   0.000069
 10.685   0.029548   0.000070
 10.695   0.029556   0.000070
 10.705   0.029564   0.000070
 10.715   0.029572   0.000070
 10.725   0.029580   0.000070
 10.735   0.029588   0.000071
 10.745   0.029596   0.000071
 10.755   0.029604   0.000071
 10.765   0.029612   0.000071
 10.775   0.029620   0.000071
 10.785   0.029628   0.000072
 10.795   0.029637   0.000072
 10.805   0.029645   0.000072
 10.815   0.029653   0.000072
 10.825   0.029661   0.000072
 10.835   0.029670   0.000073
 10.845   0.029678   0.000073
 10.855   0.029686   0.000073
 10.865   0.029695   0.000073
 10.875   0.029703   0.000074
 10.885   0.029712   0.000074
 10.895   0.029721   0.000074
 10.905   0.029730   0.000074
 10.915   0.029739   0.000074
 10.925   0.029748   0.000075
 10.935   0.029757   0.000075
 10.945   0.029766   0.000075
 10.955   0.029775   0.000075
 10.965   0.029785   0.000075
 10.975   0.029795   0.000076
 10.985   0.029805   0.000076
 10.995   0.029816   0.000076
 11.005   0.029827   0.000076
 11.015   0.029838   0.000077
 11.025   0.029851   0.000077
 11.035   0.029865   0.000077
 11.045   0.029881   0.000077
 11.055   0.029902   0.000078
 11.065   0.029933   0.000078
 11.075   0.029950   0.000078
 11.085   0.029931   0.000078
 11.095   0.029925   0.000078
 11.105   0.029924   0.000079
 11.115   0.029926   0.000079
 11.125   0.029930   0.000079
 11.135   0.029934   0.000079
 11.145   0.029940   0.000080
 11.155   0.029945   0.000080
 11.165   0.029952   0.000080
 11.175   0.029958   0.000080
 11.185   0.029965   0.000081
 11.195   0.029972   0.000081
 11.205   0.029979   0.000081
 11.215   0.029986   0.000081
 11.225   0.029994   0.000082
 11.235   0.030001   0.000082
 11.245   0.030009   0.000082
 11.255   0.030016   0.000082
 11.265   0.030024   0.000082
 11.275   0.030032   0.000083
 11.285   0.030040   0.000083
 11.295   0.030048   0.000083
 11.305   0.030055   0.000083
 11.315   0.030063   0.000084
 11.325   0.030071   0.000084
 11.335   0.030079   0.000084
 11.345   0.030087   0.000084
 11.355   0.030095   0.000085
 11.365   0.030103   0.000085
 11.375   0.030111   0.000085
 11.385   0.030119   0.000086
 11.395   0.030127   0.000086
 11.405   0.030135   0.000086
 11.415   0.030143   0.000086
 11.425   0.030151   0.000087
 11.435   0.030160   0.000087
 11.445   0.030168   0.000087
 11.455   0.030176   0.000087
 11.465   0.030184   0.000088
 11.475   0.030192   0.000088
 11.485   0.030200   0.000088
 11.495   0.030208   0.000089
 11.505   0.030216   0.000089
 11.515   0.030224   0.000089
 11.525   0.030233   0.000089
 11.535   0.030241   0.000090
 11.545   0.030249   0.000090
 11.555   0.030257   0.000090
 11.565   0.030266   0.000090
